time (s)	magX	magY	magZ
3112.555070	338.851532	70.434837	712.900085
3112.557955	334.935699	74.000008	717.108093
3112.561287	331.253662	77.623611	723.946228
3112.564615	327.279358	81.890129	728.329651
3112.567979	323.772644	86.331970	731.018127
3112.571345	320.032135	89.838692	737.622437
3112.574615	316.174744	93.754532	740.544678
3112.577945	312.492706	98.021042	745.512573
3112.580859	308.226166	102.579781	749.837524
3112.584197	303.609009	106.670952	754.104065
3112.587526	299.751617	110.762131	757.610779
3112.590889	294.374634	114.736412	762.578613
3112.594197	288.763885	118.827591	765.150208
3112.597530	285.198700	123.386322	769.533630
3112.600856	279.412628	127.828178	771.403870
3112.604194	273.918762	132.036240	775.728821
3112.607524	268.483337	136.010529	780.755127
3112.610859	263.223267	140.335480	781.982483
3112.614195	257.729401	144.426651	784.203369
3112.617523	251.651077	148.868500	788.177673
3112.620859	246.858566	152.842789	789.638794
3112.624212	240.137344	156.992416	791.801331
3112.627535	234.000580	160.616013	794.723572
3112.630858	227.863815	165.291641	797.762695
3112.634190	221.668610	169.265930	799.808350
3112.637525	214.713608	173.181763	801.561646
3112.640855	208.401520	176.162476	802.672119
3112.644221	202.030975	180.370544	804.542358
3112.647524	195.192856	184.520172	804.542358
3112.650851	189.056091	187.909988	806.295776
3112.654191	181.516647	191.708939	807.113953
3112.657520	175.379883	194.572769	808.925842
3112.660852	168.074234	197.962585	810.036255
3112.664189	160.710114	201.878433	809.159546
3112.667519	153.930450	204.917587	810.971375
3112.670852	147.150787	208.482758	809.919373
3112.674187	140.137344	211.288132	810.912903
3112.677518	133.299240	213.742844	810.854431
3112.680885	125.759796	217.658676	811.205078
3112.684182	118.395676	220.288727	810.737610
3112.687516	111.616013	223.620102	808.341309
3112.690852	104.135010	226.425476	807.406250
3112.694185	97.296906	229.347748	807.640015
3112.697518	90.108124	231.860901	806.237305
3112.700847	83.094681	234.841599	805.302124
3112.704182	75.964348	237.413208	804.367065
3112.707516	68.950905	239.634125	802.146179
3112.710850	61.586792	242.088837	800.158997
3112.715523	46.566334	247.115128	795.892456
3112.718811	39.260666	248.926941	793.788452
3112.721700	32.364113	251.673889	793.087097
3112.725043	25.526007	253.310349	790.398621
3112.728442	17.928112	255.940384	786.950378
3112.731774	10.914669	257.576874	783.852722
3112.735050	3.901226	259.154877	780.755127
3112.738358	-2.293983	261.375793	776.897705
3112.741714	-9.891876	262.895386	773.975464
3112.745059	-17.723560	264.414978	771.520752
3112.747954	-24.386326	266.051422	767.020447
3112.751304	-31.224430	267.454102	763.630615
3112.754603	-37.770313	268.798370	760.416138
3112.757933	-44.023960	269.850342	755.623657
3112.761266	-50.803623	271.369934	751.941528
3112.764624	-57.232616	272.480408	747.090576
3112.767949	-63.252483	272.831085	743.583862
3112.770842	-69.915253	273.707764	738.323792
3112.774177	-76.870255	274.292206	735.284607
3112.777509	-83.591476	274.701324	730.725891
3112.780845	-89.786682	275.285767	727.219177
3112.784177	-95.222092	275.578003	725.758057
3112.787505	-101.241974	275.578003	718.803040
3112.790840	-106.852722	275.928680	714.770325
3112.794174	-112.405029	275.694885	710.854492
3112.797509	-118.424911	276.162476	704.717712
3112.800842	-123.977203	274.993561	703.665710
3112.804175	-129.178848	275.578003	697.470459
3112.807503	-134.614258	275.870239	691.216858
3112.810839	-140.575699	274.584442	686.365906
3112.814170	-145.017548	273.649323	683.735840
3112.817507	-150.336060	273.941559	678.534180
3112.820839	-155.070145	272.889526	674.676819
3112.824170	-159.570419	273.064850	669.124512
3112.827504	-164.538269	272.246643	663.338440
3112.830837	-169.213898	271.136169	658.487427
3112.834171	-173.655762	270.142578	655.039185
3112.837502	-179.032745	269.675018	650.246704
3112.840835	-183.123917	268.681458	644.811279
3112.844170	-186.805969	268.389221	639.843384
3112.847502	-190.838715	267.687897	633.998840
3112.850833	-193.702515	265.700745	629.790771
3112.854163	-198.027481	265.233185	625.465820
3112.857501	-202.293976	264.181183	618.393982
3112.860833	-206.268280	262.953827	614.711853
3112.864167	-209.716553	262.486267	608.692017
3112.867498	-213.866180	261.025146	603.899475
3112.870836	-216.671539	260.206879	-789.496155
3112.874181	-219.652252	258.628845	593.846924
3112.877497	-223.217438	257.167725	588.002380
3112.880831	-226.548798	255.531265	584.144958
3112.884170	-228.945068	254.537704	579.586243
3112.887500	-233.153137	253.193451	572.981873
3112.890828	-235.490967	251.615433	568.773865
3112.894165	-238.471649	250.388077	562.344849
3112.897499	-242.036835	248.693161	558.604370
3112.900843	-244.199310	247.816483	553.636475
3112.905504	-251.037415	243.666855	545.921692
3112.908398	-252.323212	242.848633	541.713623
3112.911674	-255.420807	241.445938	535.635315
3112.915010	-257.641724	239.634125	531.193481
3112.918375	-259.804199	237.413208	526.576294
3112.921737	-263.018707	235.542969	521.374634
3112.925077	-265.765625	233.438919	517.751038
3112.928331	-266.700745	231.568665	513.542969
3112.931667	-269.447693	230.049103	509.510254
3112.935022	-272.369965	227.185272	507.815308
3112.937919	-273.071289	226.308578	500.801910
3112.941265	-274.473999	223.737000	496.944489
3112.944579	-275.935150	222.334305	494.548218
3112.947911	-277.863831	220.347168	490.164825
3112.951243	-279.734070	218.184677	487.008759
3112.954582	-282.247223	216.022202	483.502075
3112.957934	-282.890106	214.327286	479.118652
3112.960826	-284.643494	212.749268	475.319733
3112.964159	-285.812378	210.469910	471.053192
3112.967491	-288.442444	208.482758	468.014069
3112.970822	-288.617767	207.021622	464.507294
3112.974155	-290.137360	205.326706	460.883728
3112.977491	-291.540039	203.631790	457.493896
3112.980826	-292.884277	201.352432	455.915833
3112.984156	-293.234955	199.599075	450.305084
3112.987490	-295.222107	197.027466	447.324371
3112.990820	-296.274109	196.033905	444.460541
3112.994155	-297.735260	194.105209	441.012299
3112.997484	-298.845703	192.118057	437.271790
3113.000817	-299.430176	190.715363	433.706635
3113.004156	-301.358856	188.377563	431.544128
3113.007493	-300.657532	186.331970	428.563416
3113.010825	-302.352448	184.753952	425.465820
3113.014154	-303.521332	182.416138	421.842194
3113.017485	-303.813568	181.948578	419.387482
3113.020818	-303.813568	180.019882	418.043243
3113.024150	-304.339569	177.565170	414.887207
3113.027487	-305.216248	175.402679	411.029816
3113.030838	-308.021637	173.941559	408.984253
3113.034153	-307.787872	172.714203	405.652863
3113.037482	-309.365875	170.434830	404.308624
3113.040815	-309.132080	168.915253	400.626526
3113.044166	-311.937469	166.752777	398.230286
3113.047485	-312.463501	164.707199	396.243164
3113.050817	-311.645233	163.129166	394.723572
3113.054146	-313.749268	161.258911	392.444183
3113.057483	-312.814148	159.388657	389.931030
3113.060838	-314.158386	157.869080	387.768555
3113.064146	-316.087097	155.823502	385.898315
3113.067481	-315.853302	153.836349	385.196991
3113.070813	-318.132660	152.375214	382.742279
3113.074150	-316.087097	150.504974	380.988922
3113.077518	-318.424896	148.517838	378.884857
3113.080813	-317.197540	146.939804	378.534210
3113.084144	-317.840454	144.718887	376.605499
3113.087481	-318.366455	143.199295	374.618378
3113.090809	-319.535370	141.387497	373.449463
3113.094149	-320.938049	139.458801	373.332550
3113.098756	-321.814728	136.127411	370.585632
3113.102091	-323.743439	134.549377	368.306274
3113.105003	-323.568085	132.153122	368.130920
3113.108394	-323.568085	131.042664	368.189362
3113.111713	-324.210999	129.990646	365.676208
3113.115006	-324.327881	127.769730	365.150208
3113.118312	-325.087677	126.717705	364.332001
3113.121671	-325.730560	124.379898	362.344849
3113.125060	-326.490356	122.684975	361.994171
3113.127917	-327.016357	121.282288	360.182373
3113.131243	-327.776154	120.347160	359.773224
3113.134562	-328.594391	118.301582	359.188782
3113.137891	-327.951477	116.723557	359.247253
3113.141245	-329.237274	115.028641	357.844543
3113.144575	-330.230865	113.918182	357.493896
3113.147899	-330.055542	111.931038	355.272949
3113.150804	-330.639984	110.469902	356.266541
3113.154137	-331.458221	108.424316	355.682068
3113.157474	-331.867340	107.313850	354.980713
3113.160802	-332.218018	106.320282	354.571625
3113.164137	-332.451782	104.391586	352.935120
3113.167473	-334.380493	102.988899	352.993591
3113.170804	-333.679138	100.826424	352.175354
3113.174138	-334.731171	99.014610	352.701355
3113.177467	-334.964935	97.436584	353.110474
3113.180803	-335.374054	95.624786	353.168915
3113.184136	-337.536530	94.338989	353.811829
3113.187467	-337.594971	92.293396	354.045593
3113.190815	-338.121002	90.130913	352.350708
3113.194136	-339.932800	88.669785	353.753387
3113.197467	-339.757446	86.448860	353.227356
3113.200796	-340.400360	85.396851	354.980713
3113.204130	-340.809479	83.701927	353.987152
3113.207467	-341.277039	82.533020	354.980713
3113.210798	-341.919922	80.078316	355.448273
3113.214134	-343.907074	78.617180	357.435425
3113.217466	-343.731750	76.513153	357.669220
3113.220801	-343.731750	74.409119	358.545898
3113.224133	-344.257751	73.415550	358.370544
3113.227466	-345.075989	71.603737	359.481018
3113.230798	-346.303345	69.032143	360.007019
3113.234131	-348.115143	67.629456	361.468170
3113.237464	-347.589111	65.408539	362.403290
3113.240797	-347.822906	64.005844	363.805969
3113.244140	-349.868500	62.135590	365.091766
3113.247464	-350.978973	59.739334	366.552917
3113.250797	-351.563446	58.570427	367.429565
3113.254130	-352.147858	56.466393	368.481598
3113.257459	-352.089447	54.245468	370.351837
3113.260796	-352.440094	52.667450	371.228546
3113.264124	-353.842773	51.089424	372.864990
3113.267460	-355.128571	48.634712	373.975464
3113.270791	-354.836365	46.822906	375.436584
3113.274128	-355.888367	45.829338	377.715973
3113.277458	-356.823486	43.725304	377.832855
3113.280795	-357.524872	41.971947	378.592651
3113.284130	-357.817078	39.926357	381.514923
3113.288784	-359.278198	35.835182	384.729431
3113.292149	-360.388641	33.906487	385.956787
3113.295030	-361.382233	31.919346	387.534790
3113.298364	-362.200500	30.107540	388.762146
3113.301628	-362.668030	28.471069	390.632385
3113.304965	-363.369354	26.016365	392.794891
3113.308321	-364.246063	23.970776	394.957336
3113.311699	-365.940979	21.691408	397.821136
3113.315042	-365.064270	19.412041	399.457642
3113.318296	-366.642334	16.898890	401.444763
3113.321236	-366.759186	14.677965	404.659271
3113.324541	-367.226776	12.632379	406.237335
3113.327895	-368.278778	10.294564	408.282898
3113.331256	-370.558167	6.904734	411.906494
3113.334542	-370.265961	4.625365	413.601410
3113.337902	-370.850403	2.053770	415.822327
3113.341209	-371.960876	-0.751608	418.101685
3113.344116	-372.369934	-2.563414	422.777313
3113.347488	-373.305084	-5.135009	424.530701
3113.350786	-373.831116	-7.765051	428.154297
3113.354118	-373.538849	-10.862654	431.485718
3113.357446	-375.233795	-13.551140	433.297485
3113.360787	-375.409119	-16.590300	436.921143
3113.364126	-375.935120	-19.395676	439.784912
3113.367452	-377.104034	-21.733488	442.414948
3113.370785	-378.156036	-24.889540	445.687927
3113.374133	-378.097626	-27.285799	449.136169
3113.377451	-377.746948	-30.266512	452.759796
3113.380783	-379.149628	-33.071892	455.915833
3113.384112	-378.272949	-36.227936	459.364136
3113.387445	-379.266541	-39.208649	462.929291
3113.390777	-378.682068	-41.955582	465.968475
3113.394114	-379.324951	-44.702507	470.527191
3113.397444	-379.909393	-47.683228	474.150818
3113.400780	-380.084747	-50.430161	477.599060
3113.404117	-380.435394	-54.345993	481.573364
3113.407444	-381.019867	-57.443596	484.787842
3113.410780	-379.558746	-60.190529	487.885498
3113.414114	-380.084747	-63.931030	492.327332
3113.417454	-380.902985	-66.794861	495.191101
3113.420776	-380.902985	-69.950905	498.990051
3113.424109	-381.896576	-72.697830	502.905914
3113.427474	-379.850952	-75.386322	506.529541
3113.430777	-379.266541	-79.769722	510.211548
3113.434106	-380.435394	-82.575104	514.068970
3113.437442	-380.552338	-85.438919	518.043213
3113.440775	-378.857422	-89.588547	522.251343
3113.444108	-378.740479	-93.036819	525.524292
3113.447445	-378.389832	-96.777321	529.323181
3113.450774	-377.863831	-99.874931	534.232605
3113.454116	-376.811829	-103.732315	536.628845
3113.457463	-376.519562	-107.297485	541.362976
3113.460772	-376.344238	-110.979546	545.746399
3113.464105	-375.759796	-115.596725	549.954407
3113.467438	-374.064850	-119.103447	553.987183
3113.470793	-373.597321	-123.194626	557.669189
3113.474109	-372.720673	-127.636475	561.994202
3113.477441	-370.967285	-131.084747	565.617737
3113.482110	-368.337250	-138.857971	576.897705
3113.485011	-366.876129	-142.890701	577.599060
3113.488377	-365.005859	-146.806534	582.976074
3113.491613	-364.187622	-150.313263	587.885498
3113.494948	-362.609619	-155.748672	591.216858
3113.498304	-360.914703	-158.846283	596.652283
3113.501690	-358.401520	-163.171249	599.925171
3113.505026	-356.472809	-167.496201	606.178833
3113.508282	-354.719482	-171.645828	610.270020
3113.511192	-352.030975	-176.672119	613.776733
3113.514525	-350.336060	-179.652832	618.101685
3113.517859	-347.063110	-184.153137	623.303345
3113.521214	-344.959106	-188.887192	626.225647
3113.524577	-342.212158	-193.036819	630.609009
3113.527853	-340.341919	-197.361786	634.641724
3113.531195	-336.952087	-201.862076	637.856262
3113.534526	-334.438934	-204.784317	642.181213
3113.537434	-331.107544	-209.167740	645.103455
3113.540784	-329.120422	-213.258911	650.071289
3113.544098	-325.496796	-216.765625	654.454712
3113.547431	-322.399170	-221.149048	658.545898
3113.550764	-318.892456	-224.655746	661.468201
3113.554100	-315.853302	-229.448273	664.039734
3113.557432	-312.229706	-233.188782	668.715393
3113.560772	-309.307434	-236.987732	671.579224
3113.564099	-305.742249	-240.903564	674.735291
3113.567431	-300.657532	-244.819412	679.177124
3113.570765	-297.852142	-248.267685	680.404419
3113.574098	-292.533600	-251.365280	685.021667
3113.577433	-288.968445	-255.924026	686.190552
3113.580763	-285.052612	-261.125671	689.814148
3113.584097	-280.844543	-264.340149	692.970215
3113.587426	-276.987122	-267.496216	695.541809
3113.590763	-271.610168	-271.879608	697.996521
3113.594092	-266.934540	-275.503235	700.217468
3113.597430	-262.492706	-279.945068	700.392761
3113.600759	-258.284637	-282.925781	704.893066
3113.604091	-252.206329	-287.835175	706.529541
3113.607423	-247.238464	-291.458801	709.159546
3113.610760	-241.919922	-294.614868	710.679138
3113.614140	-236.542938	-298.296936	711.848083
3113.617425	-231.984222	-301.803619	713.952087
3113.620761	-226.139709	-304.784332	715.296326
3113.624094	-219.652252	-309.284637	715.296326
3113.627425	-214.041504	-312.616028	717.225037
3113.630774	-210.184113	-315.070740	718.919922
3113.634087	-203.229111	-319.045013	718.744629
3113.637423	-197.267685	-321.090607	720.673279
3113.640753	-190.955582	-325.181793	720.965515
3113.644091	-185.520157	-327.110474	722.777344
3113.647421	-179.441849	-331.084778	721.666870
3113.650757	-174.123322	-332.662781	722.075989
3113.654087	-167.752777	-335.351257	722.777344
3113.657417	-162.317352	-337.747528	724.296936
3113.660752	-155.596146	-340.436035	723.011108
3113.664089	-149.167160	-342.364716	723.011108
3113.667423	-143.790192	-344.760956	723.478638
3113.672058	-131.224426	-350.547058	720.673279
3113.675376	-124.327881	-351.482208	719.855103
3113.678287	-118.834015	-352.826416	719.738159
3113.681669	-112.346588	-356.040924	719.445923
3113.685001	-105.625366	-356.450043	718.043213
3113.688261	-100.131516	-357.443604	717.283508
3113.691623	-93.760971	-359.664520	715.471680
3113.694953	-86.922867	-361.768585	712.549438
3113.698291	-80.669205	-362.703705	712.140259
3113.701196	-75.000000	-363.931061	709.510254
3113.704547	-68.454117	-364.164825	707.932190
3113.707836	-61.732906	-364.866180	705.009949
3113.711172	-56.414371	-366.327301	702.204590
3113.714506	-49.517826	-367.028656	699.983643
3113.717857	-43.848629	-368.548218	696.535339
3113.721201	-38.179432	-368.489777	694.957336
3113.724502	-31.224430	-368.723572	692.093506
3113.727449	-25.613682	-370.652252	687.593201
3113.730747	-18.834019	-370.710693	685.313843
3113.734078	-12.872593	-371.236725	681.807129
3113.737414	-6.560493	-370.593842	679.352417
3113.740744	-0.482174	-371.587402	674.033875
3113.744079	5.303913	-371.762726	672.923401
3113.747414	11.499123	-372.814758	665.851562
3113.750742	16.700756	-371.236725	662.111023
3113.754079	22.954411	-371.353607	658.136780
3113.757414	29.149620	-370.476929	655.097656
3113.760745	34.818817	-370.476929	650.597351
3113.764075	40.663353	-369.892487	644.635864
3113.767409	45.280537	-369.892487	640.836975
3113.770745	51.651081	-368.782013	637.154846
3113.774078	56.677380	-368.548218	632.303894
3113.777407	61.820572	-366.385773	627.277649
3113.780753	67.431328	-366.444214	622.718872
3113.784076	72.632965	-365.333740	618.277039
3113.787408	78.185272	-365.801300	612.900085
3113.790745	82.860901	-364.690857	609.393372
3113.794076	87.536530	-363.054352	605.535950
3113.797426	92.504379	-362.236145	600.217468
3113.800737	97.413788	-358.963196	595.308044
3113.804072	102.147858	-359.313873	591.158386
3113.807403	106.239044	-358.437164	585.430786
3113.810736	111.148453	-356.742279	580.229126
3113.814076	115.473404	-354.872009	576.079529
3113.817423	120.791931	-365.392181	-123.336060
3113.820738	124.006424	-351.599060	566.903625
3113.824071	128.214493	-350.196381	562.052612
3113.827399	131.779663	-349.962616	556.091187
3113.830779	135.695496	-346.806580	551.590881
3113.834095	139.085327	-345.637634	546.856812
3113.837405	143.293396	-344.760956	542.882568
3113.840733	147.267685	-341.780243	537.564026
3113.844068	150.599060	-340.786682	533.648193
3113.847418	153.404434	-339.208679	527.160767
3113.850738	157.846283	-335.877258	523.244934
3113.854067	160.476334	-335.175934	517.867920
3113.857403	164.041504	-332.896545	514.010559
3113.860733	166.846878	-331.084778	508.049133
3113.864980	173.451202	-326.876678	498.990051
3113.868679	176.490356	-326.000031	492.093536
3113.871579	179.120392	-323.779114	488.820618
3113.874930	182.159561	-322.610168	483.735840
3113.878314	184.672699	-320.272369	479.703094
3113.881646	187.478073	-317.759216	473.683228
3113.884908	190.225006	-315.830505	467.312683
3113.888255	192.738159	-313.726501	464.331970
3113.891593	194.783752	-312.148468	459.071869
3113.894513	197.472244	-308.583313	453.753387
3113.897836	199.576263	-307.005280	449.077759
3113.901153	201.855637	-305.076569	443.642334
3113.904509	204.894791	-303.089447	439.083588
3113.907816	206.648163	-300.634735	435.576874
3113.911166	208.752197	-299.348907	430.667450
3113.914502	210.388657	-296.192871	425.874969
3113.917397	212.200470	-294.614868	420.088867
3113.920728	214.596725	-292.218597	416.406769
3113.924065	215.940964	-288.653442	411.964935
3113.927393	218.278778	-287.426086	408.691986
3113.930727	219.856796	-284.912933	406.003540
3113.934059	221.434830	-283.159546	400.860321
3113.937396	223.597305	-280.120422	396.886017
3113.940730	225.000000	-278.074829	393.963776
3113.944058	226.461121	-275.386322	390.398621
3113.947393	227.220917	-272.990082	386.190552
3113.950726	229.500275	-272.697845	383.151398
3113.954056	230.844528	-269.658691	379.936890
3113.957390	232.013443	-268.197540	376.956177
3113.960725	232.656342	-265.976624	372.514313
3113.964058	233.942139	-264.047913	368.189362
3113.967388	236.046173	-262.294586	364.390442
3113.970726	236.513733	-259.430756	362.520172
3113.974058	237.624191	-257.911163	359.188782
3113.977389	238.617767	-255.339584	356.558746
3113.980724	239.085327	-253.410873	352.818268
3113.984054	239.494446	-251.891281	350.305084
3113.987390	241.247803	-250.722397	346.272369
3113.990721	241.598480	-249.027481	344.051453
3113.994061	242.066040	-246.397430	340.486267
3113.997389	244.228516	-244.585617	337.797791
3114.000718	243.936295	-242.890701	335.109314
3114.004057	245.280533	-240.436005	331.894806
