time (s)	magX	magY	magZ
4668.208616	-334.964935	-142.364700	693.145508
4668.211950	-332.451782	-146.105194	698.405579
4668.215280	-328.711273	-150.430161	704.191711
4668.218614	-326.198151	-155.047333	709.218018
4668.221973	-321.990082	-159.196960	714.887207
4668.225281	-318.424896	-163.288132	719.621277
4668.228611	-314.684418	-167.788422	725.115173
4668.231946	-310.359436	-172.522507	728.855652
4668.235282	-306.735840	-176.730560	733.355957
4668.238613	-303.053772	-180.880173	739.375854
4668.241948	-297.676819	-185.088257	743.525391
4668.245281	-293.819427	-190.056107	748.084167
4668.248614	-289.143799	-193.562820	751.941528
4668.251945	-284.701935	-197.946213	757.727661
4668.255280	-279.909393	-202.329636	759.714783
4668.258614	-275.818237	-206.303909	764.799561
4668.261943	-270.791962	-210.979538	769.533630
4668.265278	-267.285217	-214.077148	772.280579
4668.268613	-260.797760	-218.811234	774.968994
4668.271949	-255.829926	-222.551727	779.527771
4668.275299	-250.277618	-226.584457	782.683838
4668.278611	-245.075989	-230.324966	786.132080
4668.281944	-239.582123	-233.305679	790.340149
4668.285273	-233.620697	-237.279938	793.671570
4668.288608	-228.302155	-242.130920	795.834045
4668.291939	-222.399170	-245.228500	798.931580
4668.295274	-216.087097	-248.735245	800.042053
4668.298606	-209.541229	-252.534164	803.665771
4668.301941	-203.170670	-256.450043	805.185303
4668.305276	-197.150787	-259.372314	806.763306
4668.308615	-191.014038	-262.995941	809.685608
4668.311942	-184.234375	-266.502625	811.497437
4668.315271	-177.045593	-269.308014	814.068970
4668.318606	-170.791946	-272.697845	813.835144
4668.321937	-163.194046	-275.795441	816.348389
4668.325267	-156.531281	-279.535950	815.120972
4668.329923	-142.504395	-285.614258	817.517273
4668.332780	-135.081833	-288.711884	818.452393
4668.336141	-127.367050	-291.926392	818.510803
4668.339540	-119.652252	-293.621307	819.562805
4668.342856	-112.463470	-297.420227	818.043213
4668.346111	-105.099350	-299.641144	817.400391
4668.349447	-97.676804	-301.978973	816.991211
4668.352809	-89.903564	-303.790771	816.874329
4668.356136	-82.539459	-306.303925	814.068970
4668.359081	-74.883118	-308.524841	813.542969
4668.362430	-67.460541	-310.395111	813.250732
4668.365689	-59.979542	-312.732941	809.334839
4668.369027	-52.030979	-314.486298	807.873718
4668.372353	-44.491528	-316.005859	806.997131
4668.375717	-37.770313	-317.350098	803.782593
4668.379052	-30.347752	-319.629486	801.444824
4668.381929	-23.042080	-320.623047	797.353577
4668.385269	-15.911747	-321.908844	796.067810
4668.388614	-9.190533	-323.603729	790.983093
4668.391935	-1.943310	-325.415558	788.879028
4668.395263	5.303913	-325.357117	785.196960
4668.398600	11.732903	-326.233795	781.924011
4668.401928	18.512566	-327.578033	776.254883
4668.405266	25.058445	-328.279388	774.618347
4668.408598	31.721214	-328.279388	770.234985
4668.411930	38.442429	-329.331390	765.617737
4668.415272	44.754528	-328.863831	762.344849
4668.418597	52.293980	-328.396271	757.201660
4668.421928	59.190529	-329.915863	751.181824
4668.425262	65.619522	-329.448303	747.207520
4668.428597	72.106949	-329.214508	743.642334
4668.431936	78.302162	-329.039154	738.206909
4668.435259	84.205139	-328.805389	732.011719
4668.438596	90.458801	-329.448303	728.680359
4668.441927	96.478668	-328.279388	724.004700
4668.445260	102.732315	-328.396271	717.225037
4668.448604	108.869080	-328.396271	712.315613
4668.451927	114.655167	-326.584473	705.886597
4668.455261	120.324371	-325.883118	700.217468
4668.458589	126.519577	-325.649353	694.665100
4668.461929	132.305664	-323.545319	687.359436
4668.465256	137.390411	-323.077759	683.209839
4668.468589	143.176498	-322.610168	676.079529
4668.471924	148.319702	-321.441284	668.832275
4668.475257	153.112213	-320.097046	664.390442
4668.478591	158.489182	-317.817657	658.253662
4668.481959	163.690826	-317.116333	650.655762
4668.485255	167.372879	-316.531860	643.934570
4668.488586	173.217422	-314.778503	638.791382
4668.491920	177.834595	-313.609589	633.122192
4668.495257	181.867325	-311.388672	626.225647
4668.498595	186.367615	-311.096436	617.926392
4668.501917	190.225006	-308.817078	612.900085
4668.505253	194.140854	-306.829956	605.009949
4668.509918	201.855637	-303.323212	591.567505
4668.512837	205.187027	-301.394531	585.313843
4668.516163	208.810623	-299.699615	579.703125
4668.519426	211.674454	-297.654022	573.274170
4668.522752	215.414948	-296.368225	566.611328
4668.526107	218.278778	-294.205719	560.942139
4668.529499	221.317932	-292.218597	555.389832
4668.532833	223.772644	-290.815918	548.785522
4668.536098	226.928680	-288.419647	543.466980
4668.539005	230.201630	-286.315613	537.213318
4668.542342	232.597885	-284.854492	530.375244
4668.545686	235.520157	-282.458221	525.115173
4668.549025	237.331955	-280.178864	518.452393
4668.552336	239.085327	-277.724152	513.601379
4668.555669	241.364700	-276.379913	508.692017
4668.559003	243.819397	-274.275879	501.853912
4668.561915	245.748093	-272.464081	495.950897
4668.565270	248.202805	-270.593842	490.983063
4668.568585	249.956161	-268.606689	484.846313
4668.571936	252.060181	-265.567505	479.410889
4668.575250	253.638214	-263.288147	472.865021
4668.578581	255.099350	-261.710114	466.377563
4668.581910	256.735809	-259.021637	461.585052
4668.585242	273.977203	-273.106964	-1798.496826
4668.588581	261.352997	-253.819992	446.564575
4668.591932	261.177673	-251.482193	443.700745
4668.595248	262.288147	-251.599045	437.680908
4668.598577	263.866150	-247.215652	431.894775
4668.601919	263.924622	-245.286972	426.517822
4668.605282	264.684387	-243.650482	421.316193
4668.608575	266.905334	-241.312668	418.744629
4668.611911	267.840454	-239.091751	411.848083
4668.615242	269.360046	-236.286377	404.893066
4668.618576	270.119812	-233.831665	400.217438
4668.621946	270.821167	-232.312088	396.301605
4668.625244	271.756287	-230.909393	390.340179
4668.628578	272.399170	-228.454712	388.762146
4668.631912	273.158966	-226.818237	383.092926
4668.635244	273.509644	-225.006424	377.657532
4668.638599	274.795441	-222.668610	373.800110
4668.641910	275.146118	-219.921692	370.410309
4668.645240	275.146118	-217.934540	364.858002
4668.648575	276.256592	-216.356522	362.812408
4668.651906	276.431915	-214.252472	358.370544
4668.655254	277.425476	-212.616013	354.863831
4668.658572	277.717712	-210.336639	350.947998
4668.661906	278.302155	-207.589706	345.863251
4668.665236	278.419067	-206.596146	343.408539
4668.668569	278.068390	-204.842789	340.661591
4668.671904	278.535950	-202.972534	336.979553
4668.675233	279.704865	-201.511383	334.174194
4668.678571	279.178864	-199.641129	330.492126
4668.681900	279.412628	-198.413773	327.102295
4668.685239	279.295715	-196.309753	324.238464
4668.689907	280.523071	-192.569260	317.926361
4668.693174	280.289307	-190.815887	314.302765
4668.696084	280.815308	-189.004089	310.620697
4668.699428	279.704865	-187.718292	308.925781
4668.702835	280.464630	-185.029800	306.178864
4668.706142	280.932220	-183.451782	303.665680
4668.709405	280.523071	-181.932205	300.626556
4668.712744	280.639984	-181.113968	296.886047
4668.716095	280.639984	-178.659256	296.126251
4668.719006	280.055511	-178.016373	292.327332
4668.722341	279.997070	-175.386322	288.528351
4668.725649	280.815308	-173.749863	287.008759
4668.728982	281.049103	-171.645828	284.203400
4668.732322	280.815308	-170.535355	281.339569
4668.735648	280.698425	-168.898880	279.469330
4668.739008	280.523071	-167.262421	276.254822
4668.741897	280.990631	-165.918167	274.501465
4668.745242	280.639984	-164.164825	272.105225
4668.748566	280.581543	-162.469910	270.001190
4668.751897	281.049103	-160.365875	267.897125
4668.755228	280.347748	-159.898300	264.098206
4668.758559	280.932220	-157.794281	263.805969
4668.761896	281.282867	-156.800705	261.059052
4668.765226	280.581543	-155.047333	260.474609
4668.768558	280.172424	-154.287537	257.552307
4668.771894	280.990631	-152.475739	255.915817
4668.775231	281.165985	-150.839279	255.623611
4668.778560	280.698425	-150.079483	253.461136
4668.781896	281.224426	-148.969025	251.999985
4668.785228	280.523071	-147.566330	250.831100
4668.788556	281.165985	-146.280548	249.954407
4668.791897	280.815308	-145.520752	248.668610
4668.795227	282.101105	-143.942719	247.499695
4668.798584	281.399780	-142.481598	246.389236
4668.801891	282.101105	-141.429565	245.804779
4668.805223	281.575104	-139.968430	244.460556
4668.808565	281.925781	-139.500870	244.109879
4668.811891	281.984222	-138.098190	243.408524
4668.815220	282.159576	-137.572189	242.882523
4668.818556	281.867340	-136.227936	241.246048
4668.821888	282.744019	-134.591461	240.895386
4668.825242	282.334900	-134.065445	240.310928
4668.828558	283.211578	-132.428986	239.901794
4668.831888	283.328461	-131.610748	239.258896
4668.835219	283.562256	-130.734070	238.440674
4668.838551	284.146698	-129.272934	237.797775
4668.841928	284.906464	-128.571594	237.154877
4668.845224	284.964935	-127.168915	237.154877
4668.848549	284.672699	-126.818237	236.219757
4668.851908	285.023376	-126.000000	235.167740
4668.855220	285.549408	-125.006424	234.700165
4668.858561	285.490936	-123.662186	234.700165
4668.861886	286.776764	-122.201050	234.700165
4668.865221	286.367615	-121.324371	233.589706
4668.869910	287.010529	-119.395676	233.063721
4668.872796	287.711884	-118.109871	232.303925
4668.876122	288.237885	-117.583862	231.894791
4668.879393	288.354767	-116.824081	232.011688
4668.882727	288.763885	-115.421394	231.719467
4668.886095	289.231445	-114.427818	232.187027
4668.889457	289.932800	-113.843361	232.128586
4668.892791	290.400360	-112.966682	232.596146
4668.896057	291.101685	-111.563995	232.362350
4668.898966	291.277008	-110.395088	232.362350
4668.902301	291.803040	-109.927528	232.829926
4668.905658	292.738159	-108.700172	233.122147
4668.908987	293.731720	-107.531265	234.174179
4668.912301	294.257751	-107.239037	234.758606
4668.915639	295.192871	-106.362358	234.407944
4668.918968	296.361786	-105.310349	234.933960
4668.921894	296.478668	-104.725891	235.810623
4668.925213	297.296906	-103.673882	236.979553
4668.928547	297.706024	-103.790764	237.914673
4668.931881	298.524261	-102.329628	237.914673
4668.935214	299.693176	-101.862061	239.843369
4668.938540	300.569824	-100.576271	240.953812
4668.941875	301.738770	-99.699585	242.122742
4668.945209	302.732330	-98.998238	243.116302
4668.948539	303.842773	-97.946228	243.350098
4668.951874	305.011688	-98.004677	244.986557
4668.955209	305.479248	-96.835770	247.324356
4668.958542	306.063721	-96.134430	247.675034
4668.961872	307.057281	-95.666862	248.201050
4668.965209	308.576843	-93.796616	249.954407
4668.968538	309.278198	-92.978371	251.941544
4668.971875	310.388641	-92.686142	252.818253
4668.975213	311.323761	-91.575684	253.519577
4668.978541	312.025116	-90.406776	255.448257
4668.981870	313.252472	-89.880768	256.441864
4668.985205	314.304504	-88.653419	258.604340
4668.988541	315.648743	-87.776733	260.123932
4668.991869	315.590302	-87.250732	261.059052
4668.995214	317.402100	-86.432495	263.046173
4668.998537	319.038574	-84.854469	264.098206
4669.001870	320.382812	-84.153122	265.793121
4669.005202	321.142578	-83.685562	267.254242
4669.008537	322.486847	-82.808884	269.475189
4669.011893	323.305084	-81.406189	270.760986
4669.015206	325.701355	-80.704849	272.455902
4669.018533	325.993561	-79.419052	274.384583
4669.021870	327.746918	-78.717705	275.962585
4669.025203	328.214478	-77.431908	278.475769
4669.028583	330.143188	-77.373466	280.404449
4669.031867	332.188782	-75.970779	282.508484
4669.035197	332.422546	-75.210983	285.606079
4669.038537	333.942139	-73.574516	288.060791
4669.041870	334.409698	-72.639389	290.164825
4669.045231	336.922852	-71.587372	292.561096
4669.049813	338.559296	-69.950905	298.171844
4669.053187	340.488007	-68.723549	301.678558
4669.056061	341.598480	-67.028641	305.126831
4669.059437	342.592041	-66.502625	307.698425
4669.062739	344.696075	-65.567505	311.438934
4669.066038	346.215668	-63.872581	314.244324
4669.069380	348.845703	-62.995911	317.809479
4669.072728	349.547028	-61.710114	321.374634
4669.075669	351.358856	-60.716537	325.524261
4669.078981	352.761536	-59.080070	328.095886
4669.082286	353.988892	-57.794273	331.310364
4669.085619	355.040894	-57.034485	335.284637
4669.088950	356.502045	-55.164238	338.440674
4669.092318	357.963165	-54.170662	342.648743
4669.095654	359.482758	-52.534195	345.512573
4669.098949	360.943878	-51.131500	349.720642
4669.101861	362.638794	-50.313271	354.045593
4669.105189	363.983032	-48.326126	358.078308
4669.108528	365.151947	-47.098770	361.468170
4669.111857	367.022186	-45.111633	364.858002
4669.115195	368.658661	-44.059616	368.540070
4669.118523	370.002930	-42.130913	372.748108
4669.121857	370.938049	-40.494446	377.131531
4669.125194	372.399170	-39.033310	380.521362
4669.128543	373.860291	-37.747513	384.437195
4669.131860	374.327850	-35.585037	388.469910
4669.135190	375.847443	-33.773232	391.859741
4669.138527	377.600830	-32.136765	396.418488
4669.141858	379.003510	-30.500292	400.509644
4669.145189	379.880188	-28.805376	404.951477
4669.148542	380.815308	-26.935125	409.627106
4669.151856	380.990631	-25.298658	414.478119
4669.155186	382.159546	-23.136177	418.569275
4669.158521	383.679138	-20.739918	423.770905
4669.161852	384.146698	-18.986557	427.920532
4669.165185	385.607819	-17.116306	432.362366
4669.168520	386.718292	-14.603157	437.797791
4669.171855	387.536499	-12.323788	442.707214
4669.175184	388.880768	-10.219755	446.973724
4669.178520	388.763855	-7.998833	453.110474
4669.181869	388.939209	-5.485681	459.656342
4669.185187	389.932800	-3.264757	464.565765
4669.188524	390.984802	-0.284044	470.059631
4669.191852	391.160156	1.527761	476.663940
4669.195181	391.803040	4.800701	482.450073
4669.198520	392.329041	7.313851	487.184113
4669.201873	392.562836	10.820573	493.145508
4669.205185	392.036804	13.099941	499.165405
4669.208517	392.095276	16.197544	505.711273
4669.211847	392.679718	18.535358	510.270020
4669.215184	393.205719	21.925190	516.699036
4669.218519	392.621277	24.379894	521.608398
4669.221849	392.095276	27.945061	527.336060
4669.225181	392.270599	30.516657	532.946838
4669.229858	391.101685	36.653419	546.038574
4669.233214	390.108124	39.341904	551.941528
4669.236110	389.874329	42.731735	557.143188
4669.239394	389.523651	45.829338	562.637024
4669.242707	388.120972	49.277611	568.364746
4669.246024	386.484528	52.082993	575.728821
4669.249380	386.133820	55.414375	580.462891
4669.252767	384.789612	59.563995	586.950378
4669.255629	382.802460	62.018700	592.794861
4669.258953	381.984222	66.285210	598.405579
4669.262265	380.347748	69.090591	603.957947
4669.265598	378.535950	73.123322	608.049133
4669.268953	376.607239	76.922272	614.361206
4669.272288	374.795410	80.779663	619.562805
4669.275602	372.632965	83.877266	625.056702
4669.278928	371.522491	87.500877	630.667480
4669.281843	368.658661	91.533607	637.038025
4669.285173	365.970184	95.449448	640.778503
4669.288508	363.749268	99.540619	647.149048
4669.291849	361.645233	103.047348	652.409119
4669.295196	357.963165	107.313850	657.260071
4669.298509	354.631805	111.288139	662.753967
4669.301844	351.475739	115.379303	667.312683
4669.305173	348.261261	119.178253	673.390991
4669.308506	344.696075	123.210991	678.300415
4669.311839	340.546448	127.535950	682.099365
4669.315173	337.565735	131.802460	687.476379
4669.318506	333.123901	136.068970	692.561096
4669.321836	329.208038	140.218582	696.827637
4669.325174	324.883118	144.485107	701.503235
4669.328504	320.616577	149.394516	706.120422
4669.331842	316.233185	153.018112	709.860901
4669.335172	310.739349	157.109299	714.478149
4669.338506	305.596161	162.077148	718.978394
4669.341836	300.569824	166.402115	723.770935
4669.345173	295.601990	170.025711	726.693176
4669.348532	289.699005	174.350677	731.018127
4669.351833	285.140259	178.149628	733.297485
4669.355170	279.295715	182.883698	737.447144
4669.358504	272.925171	186.857986	741.012268
4669.361837	268.366455	191.241379	743.876160
4669.365164	261.878998	195.683228	746.798401
4669.368504	255.917587	199.073059	749.662231
4669.371834	249.547043	203.690247	752.058472
4669.375166	243.234940	207.313858	755.272949
4669.378502	236.981293	210.703674	756.967896
4669.381842	231.370544	214.268845	757.376953
4669.385196	224.298660	218.710709	761.234375
4669.388496	217.635880	222.451202	763.046204
4669.391831	211.265335	226.483932	763.396851
4669.395165	204.368774	230.282883	765.267090
4669.398501	198.232025	233.906479	766.319153
4669.401835	191.452362	237.062546	767.137329
4669.405164	184.438919	241.153717	768.189392
4669.408495	177.776138	244.485092	768.949158
4669.413169	163.573929	250.738754	768.423157
4669.416127	156.443604	253.310349	769.066040
4669.419360	149.430161	257.459961	769.066040
4669.422674	141.890701	260.732910	768.072449
4669.426044	135.111038	263.888947	767.137329
4669.429367	127.571594	266.928101	767.780273
4669.432763	120.499710	270.551697	766.552856
4669.436103	112.843369	273.240204	764.273560
4669.438959	105.128578	276.045563	763.513794
4669.442248	97.822906	279.669189	761.234375
4669.445584	90.809464	281.188751	761.117493
4669.448937	83.211571	284.286377	757.552307
4669.452271	75.263000	286.624176	757.084778
4669.455577	68.366455	289.429565	754.980713
4669.458919	60.534775	291.241364	751.649353
4669.462248	53.229103	293.812958	750.889526
4669.465156	44.286964	296.209229	747.908813
4669.468490	37.215076	298.021027	744.343689
4669.471824	29.734072	299.657501	741.596741
4669.475157	22.253067	301.527740	738.674438
4669.478490	15.005840	303.164215	734.992432
4669.481824	7.758617	304.917572	732.303894
4669.485157	0.219170	306.846252	730.492126
4669.488490	-6.969608	308.132080	725.933350
4669.491854	-14.801289	308.891876	722.543518
4669.495150	-21.464062	310.177673	718.978394
4669.498492	-28.126827	311.405029	715.763916
4669.501820	-34.906490	311.814117	711.438965
4669.505155	-41.919933	312.164825	708.166016
4669.508488	-48.115139	313.450592	703.841003
4669.511818	-54.777905	313.450592	700.568115
4669.515149	-60.505550	314.502625	696.360046
4669.518485	-66.876099	314.035065	691.216858
4669.521819	-73.947983	315.729950	687.301025
4669.525159	-80.026306	315.554626	684.203369
4669.528483	-85.111053	315.203949	678.534180
4669.531816	-91.189377	315.087067	673.975464
4669.535151	-96.624786	314.794830	670.410278
4669.538485	-101.884872	315.613098	666.377563
4669.541825	-106.911163	314.970184	661.292847
4669.545153	-113.164825	315.262390	655.506714
4669.548479	-118.366455	314.385742	650.714233
4669.551818	-123.042084	315.203949	645.103455
4669.555146	-128.419052	314.853302	641.129150
4669.558490	-133.328476	313.567505	636.044434
4669.561812	-137.653427	313.333710	631.135071
4669.565148	-142.387497	312.223236	625.991821
4669.568480	-147.881363	311.521881	620.030396
4669.571817	-152.206314	310.645233	615.939270
4669.575185	-157.115738	310.236115	609.919373
4669.578483	-160.973129	308.658081	605.185303
4669.581816	-166.116318	307.664520	599.340759
4669.585143	-170.441254	305.969604	593.905334
4669.588476	-174.883118	305.385132	589.872620
4669.591854	-179.208069	304.157776	568.072449
4669.596425	-187.098175	301.644653	572.163635
4669.599332	-190.429581	299.949738	566.903625
4669.602666	-194.403854	299.014587	562.169495
4669.606068	-198.378143	297.553467	556.558777
4669.609385	-201.943314	295.741669	551.532471
4669.612653	-204.924026	294.514313	547.441223
4669.615985	-208.372284	292.468719	541.772095
4669.619337	-211.352997	290.715363	535.401550
4669.622257	-215.327301	289.838684	531.251892
4669.625587	-217.782013	288.026855	525.232056
4669.628920	-221.697845	286.565735	521.023987
4669.632230	-224.210999	284.052582	516.172974
4669.635558	-226.315033	282.299225	511.614258
4669.638916	-229.295746	280.428955	507.581543
4669.642303	-230.756866	278.675598	502.789032
4669.645142	-233.328461	277.156036	497.821136
4669.648471	-236.484528	275.110443	494.139099
4669.651809	-237.770294	273.123322	489.580353
4669.655141	-239.465240	271.428406	484.203400
4669.658473	-241.978363	269.265930	481.339569
4669.661805	-243.907074	267.804779	477.073059
4669.665136	-245.952667	265.291626	472.222107
